,radius(nm),distrib,err
8,4608.124136255618,0.0,5.5e-19
9,4392.590002871897,0.0,4.8e-19
10,4187.166988131556,0.0,1.5e-19
11,3991.3458990093895,0.0,4e-19
12,3804.6175424801913,0.0,1.4e-18
13,3626.6909511009862,0.0,1.8e-19
14,3457.056931846568,0.0,1.4e-18
15,3295.3517754132195,0.0,1.5e-18
16,3141.21177249722,0.0,2.4e-18
17,2994.345955655595,0.0,2.3e-18
18,2854.2451318631383,0.0,1.5e-18
19,2720.763817398363,0.0,2.6e-18
20,2593.5383029575496,0.0,7.7e-19
21,2472.20487923698,0.0,1.3e-18
22,2356.6180625151665,0.0,1.4e-18
23,2246.341401627646,0.0,3.9e-18
24,2141.302154713676,0.0,3.2e-18
25,2041.1366124695362,0.0001100246681813436,0.0013
26,1945.6992911737404,0.0003738235768781957,0.0031
27,1854.6992233833132,0.000780684588242145,0.0047
28,1767.9181835160232,0.0012854565418093282,0.0058
29,1685.283429711127,0.0018250679717433064,0.0062
30,1606.4312526649053,0.0023346453703265995,0.0058
31,1531.2889105166148,0.0027521184061011245,0.0048
32,1459.7109195447679,0.0030324360320408534,0.0034
33,1391.4063123063895,0.003146565351173457,0.002
34,1326.302346940736,0.0030844950197153743,0.0022
35,1264.3262815870637,0.002857237515828523,0.0036
36,1205.1871488023976,0.002492824602106875,0.0051
37,1148.812206725994,0.002034305056819747,0.0062
38,1095.055971636365,0.0015327367332633034,0.0067
39,1043.845701672767,0.0010411797534904217,0.0065
40,995.035913113713,0.0006124940126783077,0.0056
41,948.4811222377151,0.00028602409189635913,0.0043
42,904.1085871840295,8.370484537435976e-05,0.0027
43,861.8455660919125,1.1883465071087793e-06,0.0011
44,821.5465752398768,0.0,5.2e-18
45,783.1388727671784,0.0,2.5e-17
46,746.4769749523301,0.0,1.2e-17
47,711.5681559814059,0.0,7.2e-18
48,678.2887546911418,0.0,1.2e-17
49,646.5587550347193,0.0,5.8e-18
50,616.3199635235438,0.0,1e-17
51,587.4923641107969,3.384835333222227e-05,0.001
52,560.0177633078838,0.00044850820150356624,0.0025
53,533.8234192540606,0.0015097106425611116,0.0041
54,508.85841264680664,0.003403856886410994,0.0056
55,485.05727581145266,0.0062360660427806126,0.0067
56,462.36908944547804,0.01003136647112887,0.0072
57,440.7429342463621,0.014756720736970015,0.0072
58,420.12789091158425,0.0202829825054961,0.0067
59,400.48031432469827,0.026439958932386574,0.0058
60,381.7492851831834,0.033017411798186645,0.0046
61,363.898432556668,0.0397550461645237,0.0035
62,346.87683714263113,0.04635252171789089,0.0033
63,330.64812801070127,0.05250949814478136,0.0043
64,315.18320841658067,0.05794565781925539,0.0056
65,300.44570742989754,0.06235064908402256,0.007
66,286.39197993420566,0.06549421103206096,0.008
67,273.0002033712819,0.06716610544391576,0.0086
68,260.22673262468,0.06723618485040068,0.0086
69,248.05701932225108,0.06564438118881438,0.0082
70,236.45469253362347,0.062400705802940375,0.0071
71,225.39792970057397,0.05762529481818142,0.0057
72,214.85763407880506,0.05152838645399231,0.004
73,204.80470892401922,0.04441032102387991,0.0025
74,195.2246058640678,0.03664151824783599,0.0022
75,186.09550234072753,0.02866247725233728,0.0032
76,177.39557579577541,0.0209637538827783,0.0043
77,169.0957294849139,0.014005869953202885,0.005
78,161.1886892220686,0.008213306440034056,0.005
79,153.64535826294207,0.003914435419372643,0.0042
80,146.4584624214599,0.001249415704188506,0.0029
81,139.6134533254733,0.00010281650065717914,0.0013
82,133.08123423068486,0.0,1.9e-17
83,126.85453095102011,0.0,3.5e-17
84,120.92606930040475,0.0,2.9e-17
85,115.26675253454125,0.0,2.4e-17
86,109.8765806534296,0.0,2.8e-17
87,104.74100528492109,0.0,4.3e-17
88,99.83820387079254,0.0,1.2e-17
89,95.16817641104399,0.0,3.2e-17
90,90.71637453352668,0.0,2.1e-17
91,86.47552405216625,0.0,7.9e-18
92,82.43107659481392,0.0,1.4e-17
93,78.57575797539533,0.0,2.9e-17
94,74.90229400783612,0.0,2.4e-17
95,71.39686373859497,0.0,3e-17
96,68.05801233045698,0.0,2.9e-17
97,64.87482850431061,0.0,1.2e-17
98,61.840765492688945,0.0,2.7e-17
99,58.94782169091013,0.0,2.1e-17
100,56.190905168722125,0.0,3.1e-17
101,53.56274174005055,0.0,2.3e-17
102,51.057512056035904,0.0,6.8e-17
103,48.669396767818704,0.0,6e-17
104,46.39330394514686,0.0,3.4e-17
105,44.22341423916089,0.0,4.1e-17
106,42.155363138216174,0.0,5.4e-17
107,40.18333129345319,0.0,2.4e-17
108,38.30440903044221,0.0,1.6e-17
109,36.51277700032373,0.0,2.3e-17
110,34.80479811006055,0.0,1.7e-17
111,33.1768352666155,0.0,4.2e-17
112,31.62525137695138,0.0,2e-17
113,30.146409348031,0.0,1.2e-17
114,28.73594466820975,0.0,2.8e-17
115,27.39240250027275,0.0,9.7e-18
116,26.110690913967932,0.0,4.2e-17
117,24.88935507208042,0.0,1.6e-17
118,23.725485300180466,0.0,1.7e-17
119,22.616171923838333,0.0,2.6e-17
120,21.558505268624252,0.0,5.3e-17
121,20.54957566010848,0.0,1.7e-17
122,19.588655679683587,0.0,3e-17
123,18.672835652919815,0.0,3.6e-17
124,17.799205905387414,0.0,7.1e-17
125,16.967039018478953,0.0,2.7e-17
126,16.17342531776467,0.0,3e-17
127,15.416909966029706,0.0,2.3e-17
128,14.695310707451736,0.0,3.6e-17
129,14.008627542030766,0.0,3e-17
130,13.35322337672961,0.0,3.1e-17
131,12.728370792940822,0.0,3e-17
132,12.133342372056973,0.0,8.1e-17
133,11.565955858255746,0.0,4e-17
134,11.02475641432227,0.0,9.2e-17
135,10.509016621649106,0.0,7.3e-17
136,10.018009061628815,0.0,3.4e-17
137,9.548824059831649,0.0,2.8e-17
138,9.102189034865042,0.0,7.9e-18
139,8.676649149514123,0.0,3e-17
140,8.270749566564016,0.0,1.2e-17
141,7.883762867407283,0.0,6.4e-17
142,7.515689052043924,0.0,1.9e-17
143,7.16383667162642,0.0,2.7e-17
144,6.828787661040722,0.0,5.7e-17
145,6.50937815051493,0.0,2e-17
146,6.20495346330235,0.0,4.7e-17
147,5.9147134389347995,0.0,1.1e-17
148,5.63807614252633,0.0,1.2e-17
149,5.374386897330247,0.0,2.1e-17
150,5.123063768460602,0.0,3.1e-17
151,4.8834520791707,0.0,1.4e-17
152,4.6550426364353354,0.0,4.3e-17
153,4.437326247229301,0.0,2.6e-17
154,4.229793718527391,0.0,1.7e-17
155,4.0319358573044,0.0,1.6e-17
156,3.8433889542566075,0.0,2.1e-17
157,3.663571074498066,0.0,3.5e-17
158,3.492263992446542,0.0,1.7e-17
159,3.328885773216087,0.0,4.2e-17
160,3.1732181912244686,0.0,4.1e-17
161,3.0248247953072247,0.0,1.3e-17
162,2.883341876160637,0.0,2.6e-17
163,2.748478466341731,0.0,7.8e-18
164,2.61994359840753,0.0,1.9e-17
165,2.4973735630543166,0.0,1.6e-17
166,2.380550134699859,0.0,2.8e-17
167,2.2692550877619264,0.0,5.4e-18
168,2.1631247129367996,0.0,1.7e-17
169,2.061940784642248,0.0,2.7e-17
170,1.9654850772960397,0.0,1.4e-17
171,1.8735393653159433,0.0,1.8e-17
172,1.7859581649804723,0.0,1.4e-17
173,1.7023777669859073,0.0,1.4e-17
174,1.6227981713322481,0.0,1.2e-17
175,1.5468556687157766,0.0,1.1e-17
176,1.4745502591364923,0.0,2.7e-17
177,1.4055909751514204,0.0,1.8e-17
178,1.3398323330390731,0.0,2.2e-17
179,1.2771288490779635,0.0,1.4e-17
180,1.2174077814073472,0.0,9.3e-18
181,1.1605236463057371,0.0,3.6e-18
182,1.1061854763301582,0.0,1.5e-17
183,1.0544660133413541,0.0,1.1e-17
184,1.0051470317570939,0.0,1.3e-17
185,0.9581557897166334,0.0,7.4e-18
186,0.9133468034984853,0.0,1.2e-17
187,0.8706473312419059,0.0,1.2e-17
188,0.8299118892254077,0.0,1.1e-17
189,0.7910677355882468,0.0,3.1e-18
190,0.7540421284696798,0.0,1.1e-18
191,0.7188059711254088,0.0,7.4e-18
192,0.6851919572757234,0.0,3.5e-18
193,0.6531418934320286,0.0,5.2e-18
