,radius(nm),distrib,err
10,890.6118245032358,0.0,1.5e-18
11,857.4864317839534,0.0,8.4e-19
12,825.6944409488144,0.0,5e-19
13,795.0513561396352,0.0,6.6e-19
14,765.5404050056723,0.0,1e-18
15,737.1280428454371,0.0,8.8e-19
16,709.7639526066984,0.0,2.4e-18
17,683.4229757633399,0.0,6.7e-19
18,658.05479526313,0.0,4.2e-18
19,633.6342525799528,0.0,8.9e-19
20,610.1110306615764,0.0,1.6e-18
21,587.4683571572567,0.0,2.2e-18
22,565.6643011901342,0.0,2.2e-18
23,544.6653180587209,0.0,3.5e-18
24,524.4462492369007,0.0,3.1e-18
25,504.9819361985579,0.0,3.5e-18
26,486.23883424220446,0.0,7.9e-18
27,468.19178484172454,0.0,3.2e-18
28,450.8156294710023,0.0,3e-18
29,434.0852096039217,0.0,3.6e-18
30,417.966980538995,0.0,7.4e-18
31,402.4525561008502,0.0,1e-17
32,387.51677776337124,0.001778,0.0063
33,373.1344870004423,0.005914,0.014
34,359.28891146131946,0.01204,0.021
35,345.94650644451485,0.01924,0.024
36,333.1072719500286,0.02634,0.023
37,320.7460494517444,0.0322,0.018
38,308.8376804235468,0.03589,0.01
39,297.3737786900635,0.03686,0.003
40,286.3375719005507,0.03497,0.0092
41,275.71228770426444,0.03053,0.017
42,265.4811537504608,0.02424,0.022
43,255.6273976883958,0.0171,0.023
44,246.13424716732553,0.01025,0.02
45,237.00170218724995,0.004741,0.014
46,228.20460422205323,0.001291,0.0064
47,219.7345670963633,0.0,1.5e-17
48,211.5748184594363,0.0,2.3e-17
49,203.7253583112722,0.0,1.1e-17
50,196.16102812575508,0.0,2.4e-17
51,188.88182790288494,0.0,1.1e-17
52,181.87098529191783,0.0,3.2e-17
53,175.12011411748185,0.0,2.8e-17
54,168.62082820420488,0.0,2.7e-17
55,162.36474137671516,0.0,2.4e-17
56,156.33508128426857,0.0,1.8e-17
57,150.53184792686517,0.0,1.9e-17
58,144.94665512913303,0.0,4.9e-17
59,139.56273054032815,0.0,3.6e-17
60,134.38846033582254,0.0,3.1e-17
61,129.39868598950025,0.0,1.7e-17
62,124.59340750136134,0.0,4.4e-17
63,119.97262487140576,0.0,6.5e-17
64,115.51956574888959,0.0,7.5e-17
65,111.22584395844085,0.0,3.4e-17
66,107.0998456754315,0.0,3.4e-17
67,103.12479854911761,0.0,2e-17
68,99.30070257949919,0.0,2e-17
69,95.61078541583231,0.0,2.7e-17
70,92.0634332334889,0.0,3.1e-17
71,88.65025985709704,0.0,4.6e-17
72,85.35449293591275,0.0,3.1e-17
73,82.1878731154568,0.0,4.5e-17
74,79.13782113267123,0.0,1.9e-17
75,76.20014389987007,0.0,1.7e-17
76,73.37232556444172,0.0,3e-17
77,70.64849580362579,0.0,4.9e-17
78,68.02613876481071,0.0,5.3e-17
79,65.50189997784769,0.0,3.8e-17
80,63.06990911997632,0.0,2.3e-17
81,60.72932757365944,0.001923,0.0031
82,58.475123633673846,0.006917,0.0066
83,56.304781447407954,0.01473,0.0091
84,54.21494654471298,0.02419,0.01
85,52.20310307297733,0.03369,0.0099
86,50.26505794451502,0.04151,0.0088
87,48.39913392425165,0.04624,0.007
88,46.60281515957562,0.04698,0.0055
89,44.87358579787537,0.04353,0.0054
90,43.208091369002084,0.03645,0.007
91,41.60381602034418,0.02698,0.0087
92,40.05992113436447,0.01689,0.0091
93,38.57305224091415,0.008123,0.0074
94,37.14153210491884,0.00229,0.0038
95,35.76284487376694,0.0,1.2e-16
96,34.43531331238406,0.0,3.8e-17
97,33.157260185695804,0.0,4.3e-17
98,31.926169641090567,0.0,5e-17
99,30.74120306103118,0.0,2.8e-17
100,29.600683210443233,0.0,3e-17
101,28.502094236715134,0.0,6.7e-17
102,27.443758904772498,0.0,5.9e-17
103,26.424838597078118,0.0,1.3e-16
104,25.444494696094797,0.0,1.9e-16
105,24.500211349210957,0.0,6.6e-17
106,23.59031132135219,0.0,1.2e-16
107,22.7147946125185,0.0,6.1e-17
108,21.87198398763549,0.0,1.1e-16
109,21.060202211628777,0.0,2.4e-17
110,20.27861066696115,0.0,8e-17
111,19.52553211855823,0.0,1.1e-16
112,18.800966566420005,0.0,2.1e-16
113,18.103236775472084,0.0,1.7e-16
114,17.43150412817727,0.0,6.6e-17
115,16.784091389461167,0.0,8e-17
116,16.160998559323783,0.0,1.3e-16
117,15.561387020227912,0.0,7.4e-17
118,14.983579537099166,0.0,7.8e-17
119,14.427576109937542,0.0,6.6e-17
120,13.892538121205844,0.0,7e-17
121,13.376788335829675,0.0,1.2e-16
122,12.880326753809038,0.0,3e-17
123,12.402314757606735,0.0,1.5e-16
124,11.94191372968557,0.0,7.5e-17
125,11.498285052508347,0.0,4.4e-17
126,11.071428726075066,0.0,4.7e-17
127,10.660506132848523,0.0,1.3e-16
128,10.264678655291531,0.0,1.5e-16
129,9.883946293404083,0.0,7.9e-17
130,9.517470429648984,0.0,2.1e-16
131,9.163573828951842,0.0,7.5e-17
132,8.82393372638705,0.0,1.2e-16
133,8.496034269343015,0.0,9.8e-17
134,8.180965660618094,0.0,1.1e-16
135,7.877302250399053,0.0,2.4e-16
136,7.584960176932172,0.0,2.5e-16
137,7.3034362696951325,0.0,4.5e-17
138,7.032395081673054,0.0,9.4e-17
139,6.771333442343622,0.0,2.6e-17
140,6.519999766445675,0.0,9.8e-17
141,6.277974745210615,0.0,6e-17
142,6.045006793377282,0.0,4.4e-17
143,5.82059274042336,0.0,7e-17
144,5.604564862841407,0.0,6.6e-17
145,5.3965877136165465,0.0,1.2e-16
146,5.196241983980179,0.0,5.8e-17
147,5.003359950424864,0.0,5.1e-17
148,4.817690027689443,0.0,4e-17
149,4.638896768759038,0.0,1e-16
150,4.466728588372491,0.0,5.1e-17
151,4.30093390126864,0.0,1e-16
152,4.141261122186327,0.0,7e-17
153,3.9875425276181127,0.0,5.9e-17
154,3.8395265323028385,0.0,4.5e-17
155,3.6970454127330648,0.0,7.5e-17
156,3.5598475836476324,0.0,1.2e-16
157,3.427681459785382,0.0,1e-16
158,3.300463179392594,0.0,2.8e-17
159,3.1779411572081098,0.0,4.3e-17
160,3.0600315314782085,0.0,5.1e-17
161,2.946482716941732,0.0,6.2e-17
162,2.8370431283375206,0.0,3.4e-17
163,2.7317966274192944,0.0,4.4e-17
164,2.630407767172174,0.0,4.4e-17
165,2.5327926858424417,0.0,6e-17
166,2.4387836599226556,0.0,6.5e-17
167,2.3482129659053768,0.0,9e-17
168,2.261080603790607,0.0,1.7e-17
169,2.177134988317185,0.0,5e-17
170,2.096376119485112,0.0,4.5e-17
171,2.0185524120332285,0.0,2.7e-17
172,1.9435800042078148,0.0,2.3e-17
173,1.871458896008871,0.0,5.2e-17
174,1.8020213639289577,0.0,1.6e-17
175,1.7350996844606354,0.0,2.6e-17
176,1.6706938576039043,0.0,3.4e-17
177,1.6087200216050443,0.0,3.8e-17
178,1.5490104529566167,0.0,3.4e-17
179,1.491481289904901,0.0,8.6e-17
180,1.4361325324498977,0.0,2.9e-17
181,1.3828803188378869,0.0,4.3e-17
182,1.3315569255614292,0.0,1.3e-17
183,1.2820784908668048,0.0,2e-17
184,1.2345288765077338,0.0,4.5e-17
185,1.1886564972230569,0.0,4.8e-17
186,1.1445452147664936,0.0,2.4e-17
187,1.1021111673843245,0.0,5e-17
188,1.0611866315691096,0.0,1.3e-17
189,1.0217716073208498,0.0,1.3e-17
190,0.9838660946395446,0.0,2e-17
191,0.947386231771474,0.0,2e-17
192,0.9121642952091992,0.0,1.4e-17
